#    s        x        y     Ue/Vinf    Dstar     Theta      Cf       H
   0.00000  1.00000  0.00126  0.74222  0.000000  0.000000  0.000000     0.947
   0.00840  0.99168  0.00242  0.86120  0.000000  0.000000  0.000000     0.928
   0.01982  0.98036  0.00398  0.89459  0.000000  0.000000  0.000000     0.922
   0.03305  0.96726  0.00576  0.92253  0.000000  0.000000  0.000000     0.917
   0.04773  0.95271  0.00771  0.94417  0.000000  0.000000  0.000000     0.913
   0.06338  0.93719  0.00974  0.96170  0.000000  0.000000  0.000000     0.910
   0.07959  0.92111  0.01182  0.97765  0.000000  0.000000  0.000000     0.906
   0.09610  0.90473  0.01389  0.99101  0.000000  0.000000  0.000000     0.904
   0.11276  0.88820  0.01594  1.00328  0.000000  0.000000  0.000000     0.901
   0.12949  0.87159  0.01796  1.01420  0.000000  0.000000  0.000000     0.899
   0.14626  0.85494  0.01994  1.02454  0.000000  0.000000  0.000000     0.897
   0.16305  0.83826  0.02190  1.03398  0.000000  0.000000  0.000000     0.895
   0.17985  0.82157  0.02381  1.04301  0.000000  0.000000  0.000000     0.893
   0.19666  0.80487  0.02569  1.05159  0.000000  0.000000  0.000000     0.891
   0.21346  0.78817  0.02753  1.05995  0.000000  0.000000  0.000000     0.890
   0.23027  0.77146  0.02934  1.06782  0.000000  0.000000  0.000000     0.888
   0.24708  0.75474  0.03111  1.07577  0.000000  0.000000  0.000000     0.886
   0.26389  0.73803  0.03284  1.08316  0.000000  0.000000  0.000000     0.885
   0.28069  0.72131  0.03453  1.09076  0.000000  0.000000  0.000000     0.883
   0.29749  0.70459  0.03619  1.09791  0.000000  0.000000  0.000000     0.881
   0.31428  0.68788  0.03781  1.10552  0.000000  0.000000  0.000000     0.880
   0.33106  0.67117  0.03939  1.11267  0.000000  0.000000  0.000000     0.878
   0.34784  0.65446  0.04092  1.11981  0.000000  0.000000  0.000000     0.876
   0.36460  0.63777  0.04242  1.12716  0.000000  0.000000  0.000000     0.875
   0.38136  0.62107  0.04387  1.13449  0.000000  0.000000  0.000000     0.873
   0.39810  0.60439  0.04527  1.14166  0.000000  0.000000  0.000000     0.871
   0.41483  0.58772  0.04663  1.14909  0.000000  0.000000  0.000000     0.870
   0.43154  0.57105  0.04794  1.15638  0.000000  0.000000  0.000000     0.868
   0.44824  0.55440  0.04920  1.16403  0.000000  0.000000  0.000000     0.866
   0.46492  0.53777  0.05041  1.17152  0.000000  0.000000  0.000000     0.864
   0.48158  0.52115  0.05156  1.17920  0.000000  0.000000  0.000000     0.863
   0.49821  0.50455  0.05265  1.18701  0.000000  0.000000  0.000000     0.861
   0.51482  0.48797  0.05368  1.19482  0.000000  0.000000  0.000000     0.859
   0.53141  0.47142  0.05465  1.20299  0.000000  0.000000  0.000000     0.857
   0.54797  0.45488  0.05555  1.21095  0.000000  0.000000  0.000000     0.855
   0.56449  0.43838  0.05639  1.21936  0.000000  0.000000  0.000000     0.853
   0.58099  0.42190  0.05714  1.22778  0.000000  0.000000  0.000000     0.851
   0.59745  0.40545  0.05782  1.23622  0.000000  0.000000  0.000000     0.849
   0.61387  0.38904  0.05842  1.24512  0.000000  0.000000  0.000000     0.846
   0.63025  0.37267  0.05893  1.25409  0.000000  0.000000  0.000000     0.844
   0.64658  0.35634  0.05935  1.26312  0.000000  0.000000  0.000000     0.842
   0.66287  0.34006  0.05967  1.27251  0.000000  0.000000  0.000000     0.839
   0.67911  0.32382  0.05989  1.28193  0.000000  0.000000  0.000000     0.837
   0.69528  0.30765  0.06000  1.29164  0.000000  0.000000  0.000000     0.834
   0.71140  0.29153  0.06000  1.30162  0.000000  0.000000  0.000000     0.832
   0.72744  0.27549  0.05988  1.31188  0.000000  0.000000  0.000000     0.829
   0.74341  0.25952  0.05963  1.32222  0.000000  0.000000  0.000000     0.826
   0.75929  0.24365  0.05924  1.33299  0.000000  0.000000  0.000000     0.823
   0.77508  0.22787  0.05871  1.34414  0.000000  0.000000  0.000000     0.820
   0.79075  0.21221  0.05803  1.35548  0.000000  0.000000  0.000000     0.817
   0.80629  0.19669  0.05718  1.36715  0.000000  0.000000  0.000000     0.813
   0.82168  0.18133  0.05616  1.37951  0.000000  0.000000  0.000000     0.810
   0.83689  0.16617  0.05497  1.39219  0.000000  0.000000  0.000000     0.806
   0.85187  0.15126  0.05358  1.40534  0.000000  0.000000  0.000000     0.802
   0.86656  0.13665  0.05200  1.41919  0.000000  0.000000  0.000000     0.798
   0.88088  0.12244  0.05021  1.43349  0.000000  0.000000  0.000000     0.794
   0.89471  0.10876  0.04824  1.44856  0.000000  0.000000  0.000000     0.790
   0.90790  0.09574  0.04609  1.46421  0.000000  0.000000  0.000000     0.785
   0.92029  0.08357  0.04380  1.48035  0.000000  0.000000  0.000000     0.780
   0.93169  0.07242  0.04142  1.49650  0.000000  0.000000  0.000000     0.775
   0.94201  0.06239  0.03900  1.51257  0.000000  0.000000  0.000000     0.770
   0.95119  0.05353  0.03659  1.52843  0.000000  0.000000  0.000000     0.764
   0.95927  0.04580  0.03424  1.54321  0.000000  0.000000  0.000000     0.760
   0.96635  0.03910  0.03196  1.55688  0.000000  0.000000  0.000000     0.755
   0.97256  0.03329  0.02976  1.56900  0.000000  0.000000  0.000000     0.751
   0.97802  0.02825  0.02764  1.57912  0.000000  0.000000  0.000000     0.748
   0.98286  0.02387  0.02560  1.58673  0.000000  0.000000  0.000000     0.745
   0.98718  0.02003  0.02361  1.59160  0.000000  0.000000  0.000000     0.743
   0.99107  0.01666  0.02167  1.59135  0.000000  0.000000  0.000000     0.744
   0.99460  0.01369  0.01977  1.58735  0.000000  0.000000  0.000000     0.745
   0.99781  0.01108  0.01789  1.57449  0.000000  0.000000  0.000000     0.749
   1.00078  0.00879  0.01602  1.55317  0.000000  0.000000  0.000000     0.756
   1.00352  0.00678  0.01415  1.51938  0.000000  0.000000  0.000000     0.767
   1.00607  0.00505  0.01227  1.47059  0.000000  0.000000  0.000000     0.783
   1.00847  0.00358  0.01038  1.40190  0.000000  0.000000  0.000000     0.803
   1.01072  0.00236  0.00848  1.31244  0.000000  0.000000  0.000000     0.829
   1.01286  0.00140  0.00657  1.19795  0.000000  0.000000  0.000000     0.858
   1.01490  0.00070  0.00466  1.06414  0.000000  0.000000  0.000000     0.889
   1.01685  0.00024  0.00276  0.91359  0.000000  0.000000  0.000000     0.919
   1.01872  0.00003  0.00091  0.75761  0.000000  0.000000  0.000000     0.944
   1.02053  0.00003 -0.00091  0.60254  0.000000  0.000000  0.000000     0.965
   1.02239  0.00024 -0.00276  0.44578  0.000000  0.000000  0.000000     0.981
   1.02434  0.00070 -0.00466  0.28843  0.000000  0.000000  0.000000     0.992
   1.02638  0.00140 -0.00657  0.13803  0.000000  0.000000  0.000000     0.998
   1.02852  0.00236 -0.00848 -0.00145  0.000000  0.000000  0.000000     1.000
   1.03078  0.00358 -0.01038 -0.12726  0.000000  0.000000  0.000000     0.998
   1.03317  0.00505 -0.01227 -0.23997  0.000000  0.000000  0.000000     0.994
   1.03573  0.00678 -0.01415 -0.33852  0.000000  0.000000  0.000000     0.989
   1.03847  0.00879 -0.01602 -0.42581  0.000000  0.000000  0.000000     0.983
   1.04143  0.01108 -0.01789 -0.50241  0.000000  0.000000  0.000000     0.976
   1.04465  0.01369 -0.01977 -0.57051  0.000000  0.000000  0.000000     0.969
   1.04817  0.01666 -0.02167 -0.63056  0.000000  0.000000  0.000000     0.962
   1.05206  0.02003 -0.02361 -0.68446  0.000000  0.000000  0.000000     0.955
   1.05638  0.02387 -0.02560 -0.73310  0.000000  0.000000  0.000000     0.948
   1.06122  0.02825 -0.02764 -0.77662  0.000000  0.000000  0.000000     0.941
   1.06669  0.03329 -0.02976 -0.81692  0.000000  0.000000  0.000000     0.935
   1.07289  0.03910 -0.03196 -0.85302  0.000000  0.000000  0.000000     0.929
   1.07997  0.04580 -0.03424 -0.88638  0.000000  0.000000  0.000000     0.923
   1.08805  0.05353 -0.03659 -0.91648  0.000000  0.000000  0.000000     0.918
   1.09723  0.06239 -0.03900 -0.94370  0.000000  0.000000  0.000000     0.913
   1.10755  0.07241 -0.04142 -0.96786  0.000000  0.000000  0.000000     0.908
   1.11896  0.08357 -0.04380 -0.98896  0.000000  0.000000  0.000000     0.904
   1.13134  0.09574 -0.04609 -1.00693  0.000000  0.000000  0.000000     0.901
   1.14453  0.10876 -0.04824 -1.02230  0.000000  0.000000  0.000000     0.898
   1.15836  0.12244 -0.05021 -1.03486  0.000000  0.000000  0.000000     0.895
   1.17268  0.13665 -0.05200 -1.04533  0.000000  0.000000  0.000000     0.893
   1.18737  0.15126 -0.05358 -1.05384  0.000000  0.000000  0.000000     0.891
   1.20235  0.16617 -0.05497 -1.06064  0.000000  0.000000  0.000000     0.889
   1.21756  0.18133 -0.05616 -1.06617  0.000000  0.000000  0.000000     0.888
   1.23295  0.19669 -0.05718 -1.07039  0.000000  0.000000  0.000000     0.887
   1.24849  0.21221 -0.05803 -1.07364  0.000000  0.000000  0.000000     0.887
   1.26417  0.22787 -0.05871 -1.07617  0.000000  0.000000  0.000000     0.886
   1.27995  0.24365 -0.05924 -1.07779  0.000000  0.000000  0.000000     0.886
   1.29583  0.25952 -0.05963 -1.07896  0.000000  0.000000  0.000000     0.886
   1.31180  0.27549 -0.05988 -1.07935  0.000000  0.000000  0.000000     0.885
   1.32784  0.29153 -0.06000 -1.07946  0.000000  0.000000  0.000000     0.885
   1.34396  0.30765 -0.06000 -1.07910  0.000000  0.000000  0.000000     0.886
   1.36014  0.32382 -0.05989 -1.07835  0.000000  0.000000  0.000000     0.886
   1.37637  0.34006 -0.05967 -1.07735  0.000000  0.000000  0.000000     0.886
   1.39266  0.35634 -0.05935 -1.07593  0.000000  0.000000  0.000000     0.886
   1.40899  0.37267 -0.05893 -1.07460  0.000000  0.000000  0.000000     0.886
   1.42537  0.38904 -0.05842 -1.07265  0.000000  0.000000  0.000000     0.887
   1.44180  0.40545 -0.05782 -1.07091  0.000000  0.000000  0.000000     0.887
   1.45825  0.42190 -0.05714 -1.06871  0.000000  0.000000  0.000000     0.888
   1.47475  0.43838 -0.05639 -1.06650  0.000000  0.000000  0.000000     0.888
   1.49128  0.45488 -0.05555 -1.06416  0.000000  0.000000  0.000000     0.889
   1.50783  0.47142 -0.05465 -1.06167  0.000000  0.000000  0.000000     0.889
   1.52442  0.48797 -0.05368 -1.05919  0.000000  0.000000  0.000000     0.890
   1.54103  0.50455 -0.05265 -1.05645  0.000000  0.000000  0.000000     0.890
   1.55767  0.52115 -0.05156 -1.05381  0.000000  0.000000  0.000000     0.891
   1.57432  0.53777 -0.05041 -1.05098  0.000000  0.000000  0.000000     0.892
   1.59100  0.55441 -0.04920 -1.04816  0.000000  0.000000  0.000000     0.892
   1.60770  0.57105 -0.04794 -1.04515  0.000000  0.000000  0.000000     0.893
   1.62441  0.58772 -0.04663 -1.04231  0.000000  0.000000  0.000000     0.893
   1.64114  0.60439 -0.04527 -1.03909  0.000000  0.000000  0.000000     0.894
   1.65788  0.62107 -0.04387 -1.03606  0.000000  0.000000  0.000000     0.895
   1.67464  0.63777 -0.04242 -1.03290  0.000000  0.000000  0.000000     0.895
   1.69141  0.65446 -0.04092 -1.02967  0.000000  0.000000  0.000000     0.896
   1.70818  0.67117 -0.03939 -1.02627  0.000000  0.000000  0.000000     0.897
   1.72497  0.68788 -0.03781 -1.02284  0.000000  0.000000  0.000000     0.897
   1.74176  0.70459 -0.03619 -1.01920  0.000000  0.000000  0.000000     0.898
   1.75856  0.72131 -0.03453 -1.01575  0.000000  0.000000  0.000000     0.899
   1.77536  0.73803 -0.03284 -1.01176  0.000000  0.000000  0.000000     0.900
   1.79216  0.75474 -0.03111 -1.00785  0.000000  0.000000  0.000000     0.900
   1.80897  0.77146 -0.02934 -1.00364  0.000000  0.000000  0.000000     0.901
   1.82578  0.78817 -0.02753 -0.99912  0.000000  0.000000  0.000000     0.902
   1.84259  0.80487 -0.02569 -0.99460  0.000000  0.000000  0.000000     0.903
   1.85939  0.82157 -0.02381 -0.98955  0.000000  0.000000  0.000000     0.904
   1.87619  0.83826 -0.02190 -0.98402  0.000000  0.000000  0.000000     0.905
   1.89298  0.85494 -0.01994 -0.97817  0.000000  0.000000  0.000000     0.906
   1.90975  0.87159 -0.01796 -0.97155  0.000000  0.000000  0.000000     0.908
   1.92648  0.88820 -0.01594 -0.96440  0.000000  0.000000  0.000000     0.909
   1.94314  0.90473 -0.01389 -0.95606  0.000000  0.000000  0.000000     0.911
   1.95965  0.92111 -0.01182 -0.94642  0.000000  0.000000  0.000000     0.912
   1.97586  0.93719 -0.00974 -0.93499  0.000000  0.000000  0.000000     0.915
   1.99151  0.95271 -0.00771 -0.92148  0.000000  0.000000  0.000000     0.917
   2.00619  0.96726 -0.00576 -0.90429  0.000000  0.000000  0.000000     0.920
   2.01942  0.98036 -0.00398 -0.88127  0.000000  0.000000  0.000000     0.924
   2.03084  0.99168 -0.00242 -0.85215  0.000000  0.000000  0.000000     0.929
   2.03924  1.00000 -0.00126 -0.74222  0.000000  0.000000  0.000000     0.947
