#    s        x        y     Ue/Vinf    Dstar     Theta      Cf       H
   0.00000  1.00000  0.00126  1.07038  0.093583  0.010789 -0.000240     8.319
   0.00840  0.99168  0.00242  1.07074  0.092631  0.010755 -0.001228     8.259
   0.01982  0.98036  0.00398  1.07124  0.091255  0.010711 -0.001237     8.169
   0.03305  0.96726  0.00576  1.07182  0.089635  0.010658 -0.001247     8.062
   0.04773  0.95271  0.00771  1.07250  0.087824  0.010599 -0.001259     7.942
   0.06338  0.93719  0.00974  1.07325  0.085889  0.010535 -0.001272     7.813
   0.07959  0.92111  0.01182  1.07405  0.083875  0.010467 -0.001287     7.677
   0.09610  0.90473  0.01389  1.07491  0.081830  0.010396 -0.001303     7.539
   0.11276  0.88820  0.01594  1.07582  0.079770  0.010322 -0.001320     7.399
   0.12949  0.87159  0.01796  1.07678  0.077708  0.010247 -0.001338     7.259
   0.14626  0.85494  0.01994  1.07778  0.075648  0.010169 -0.001357     7.119
   0.16305  0.83826  0.02190  1.07884  0.073597  0.010089 -0.001377     6.979
   0.17985  0.82157  0.02381  1.07995  0.071555  0.010006 -0.001399     6.839
   0.19666  0.80487  0.02569  1.08113  0.069525  0.009921 -0.001422     6.699
   0.21346  0.78817  0.02753  1.08236  0.067506  0.009834 -0.001447     6.560
   0.23027  0.77146  0.02934  1.08367  0.065503  0.009744 -0.001474     6.421
   0.24708  0.75474  0.03111  1.08506  0.063514  0.009652 -0.001502     6.284
   0.26389  0.73803  0.03284  1.08652  0.061543  0.009556 -0.001532     6.147
   0.28069  0.72131  0.03453  1.08808  0.059588  0.009458 -0.001564     6.011
   0.29749  0.70459  0.03619  1.08972  0.057654  0.009357 -0.001597     5.876
   0.31428  0.68788  0.03781  1.09147  0.055735  0.009252 -0.001630     5.742
   0.33106  0.67117  0.03939  1.09333  0.053841  0.009144 -0.001662     5.609
   0.34784  0.65446  0.04092  1.09531  0.051969  0.009032 -0.001689     5.478
   0.36460  0.63777  0.04242  1.09742  0.050119  0.008917 -0.001713     5.348
   0.38136  0.62107  0.04387  1.09967  0.048294  0.008798 -0.001734     5.220
   0.39810  0.60439  0.04527  1.10206  0.046497  0.008675 -0.001749     5.094
   0.41483  0.58772  0.04663  1.10462  0.044726  0.008548 -0.001752     4.970
   0.43154  0.57105  0.04794  1.10735  0.042985  0.008417 -0.001741     4.847
   0.44824  0.55440  0.04920  1.11026  0.041274  0.008281 -0.001710     4.727
   0.46492  0.53777  0.05041  1.11338  0.039595  0.008141 -0.001654     4.609
   0.48158  0.52115  0.05156  1.11669  0.037950  0.007996 -0.001569     4.494
   0.49821  0.50455  0.05265  1.12023  0.036339  0.007847 -0.001450     4.382
   0.51482  0.48797  0.05368  1.12399  0.034765  0.007693 -0.001290     4.272
   0.53141  0.47142  0.05465  1.12798  0.033228  0.007536 -0.001083     4.164
   0.54797  0.45488  0.05555  1.13220  0.031731  0.007374 -0.000825     4.060
   0.56449  0.43838  0.05639  1.13668  0.030272  0.007208 -0.000509     3.958
   0.58099  0.42190  0.05714  1.14144  0.028855  0.007037 -0.000131     3.860
   0.59745  0.40545  0.05782  1.14650  0.027479  0.006861  0.000314     3.766
   0.61387  0.38904  0.05842  1.15185  0.026144  0.006680  0.000832     3.676
   0.63025  0.37267  0.05893  1.15752  0.024853  0.006494  0.001426     3.590
   0.64658  0.35634  0.05935  1.16350  0.023604  0.006303  0.002100     3.508
   0.66287  0.34006  0.05967  1.16980  0.022399  0.006108  0.002859     3.431
   0.67911  0.32382  0.05989  1.17641  0.021235  0.005909  0.003709     3.358
   0.69528  0.30765  0.06000  1.18333  0.020113  0.005706  0.004656     3.288
   0.71140  0.29153  0.06000  1.19054  0.019032  0.005500  0.005703     3.223
   0.72744  0.27549  0.05988  1.19804  0.017989  0.005292  0.006863     3.162
   0.74341  0.25952  0.05963  1.20580  0.016984  0.005081  0.008139     3.105
   0.75929  0.24365  0.05924  1.21379  0.016015  0.004867  0.009545     3.051
   0.77508  0.22787  0.05871  1.22200  0.015078  0.004652  0.011095     3.000
   0.79075  0.21221  0.05803  1.23040  0.014175  0.004436  0.012801     2.953
   0.80629  0.19669  0.05718  1.23894  0.013299  0.004218  0.014690     2.909
   0.82168  0.18133  0.05616  1.24759  0.012449  0.003999  0.016790     2.868
   0.83689  0.16617  0.05497  1.25629  0.011625  0.003778  0.019126     2.829
   0.85187  0.15126  0.05358  1.26497  0.010822  0.003557  0.021750     2.792
   0.86656  0.13665  0.05200  1.27353  0.010040  0.003336  0.024718     2.758
   0.88088  0.12244  0.05021  1.28185  0.009279  0.003115  0.028086     2.725
   0.89471  0.10876  0.04824  1.28974  0.008539  0.002895  0.031954     2.694
   0.90790  0.09574  0.04609  1.29696  0.007826  0.002678  0.036380     2.665
   0.92029  0.08357  0.04380  1.30323  0.007142  0.002467  0.041487     2.636
   0.93169  0.07242  0.04142  1.30817  0.006498  0.002266  0.047293     2.609
   0.94201  0.06239  0.03900  1.31147  0.005897  0.002075  0.053873     2.582
   0.95119  0.05353  0.03659  1.31281  0.005344  0.001898  0.061288     2.556
   0.95927  0.04580  0.03424  1.31190  0.004842  0.001736  0.069487     2.532
   0.96635  0.03910  0.03196  1.30850  0.004386  0.001588  0.078551     2.508
   0.97256  0.03329  0.02976  1.30232  0.003973  0.001453  0.088445     2.485
   0.97802  0.02825  0.02764  1.29306  0.003599  0.001329  0.099281     2.462
   0.98286  0.02387  0.02560  1.28024  0.003259  0.001216  0.110995     2.440
   0.98718  0.02003  0.02361  1.26333  0.002947  0.001113  0.123753     2.417
   0.99107  0.01666  0.02167  1.24152  0.002664  0.001017  0.137272     2.396
   0.99460  0.01369  0.01977  1.21395  0.002403  0.000930  0.151694     2.374
   0.99781  0.01108  0.01789  1.17933  0.002165  0.000849  0.166582     2.353
   1.00078  0.00879  0.01602  1.13626  0.001949  0.000775  0.181261     2.333
   1.00352  0.00678  0.01415  1.08313  0.001753  0.000708  0.195014     2.313
   1.00607  0.00505  0.01227  1.01811  0.001578  0.000648  0.206247     2.295
   1.00847  0.00358  0.01038  0.93960  0.001427  0.000595  0.212848     2.278
   1.01072  0.00236  0.00848  0.84646  0.001298  0.000550  0.212772     2.262
   1.01286  0.00140  0.00657  0.73871  0.001196  0.000515  0.202654     2.249
   1.01490  0.00070  0.00466  0.61844  0.001118  0.000489  0.182193     2.239
   1.01685  0.00024  0.00276  0.48901  0.001068  0.000472  0.151099     2.231
   1.01872  0.00003  0.00091  0.35664  0.001042  0.000464  0.112773     2.228
   1.02053  0.00003 -0.00091  0.22544  0.001038  0.000465  0.071609     2.225
   1.02239  0.00024 -0.00276  0.09289  0.001053  0.000472  0.028920     2.229
   1.02434  0.00070 -0.00466 -0.04176  0.001053  0.000472  0.013007     2.229
   1.02638  0.00140 -0.00657 -0.17202  0.001120  0.000500  0.050106     2.236
   1.02852  0.00236 -0.00848 -0.29082  0.001201  0.000533  0.078738     2.242
   1.03078  0.00358 -0.01038 -0.39828  0.001294  0.000570  0.099673     2.249
   1.03317  0.00505 -0.01227 -0.49406  0.001407  0.000614  0.112965     2.259
   1.03573  0.00678 -0.01415 -0.57834  0.001538  0.000665  0.120238     2.269
   1.03847  0.00879 -0.01602 -0.65219  0.001685  0.000721  0.122872     2.280
   1.04143  0.01108 -0.01789 -0.71685  0.001849  0.000783  0.122188     2.291
   1.04465  0.01369 -0.01977 -0.77377  0.002027  0.000851  0.119468     2.302
   1.04817  0.01666 -0.02167 -0.82387  0.002224  0.000924  0.114893     2.314
   1.05206  0.02003 -0.02361 -0.86833  0.002437  0.001004  0.109671     2.325
   1.05638  0.02387 -0.02560 -0.90796  0.002671  0.001091  0.103718     2.336
   1.06122  0.02825 -0.02764 -0.94338  0.002927  0.001185  0.097436     2.348
   1.06669  0.03329 -0.02976 -0.97530  0.003206  0.001287  0.091183     2.359
   1.07289  0.03910 -0.03196 -1.00401  0.003514  0.001399  0.084788     2.371
   1.07997  0.04580 -0.03424 -1.02984  0.003852  0.001522  0.078583     2.382
   1.08805  0.05353 -0.03659 -1.05292  0.004223  0.001656  0.072497     2.394
   1.09723  0.06239 -0.03900 -1.07336  0.004627  0.001801  0.066768     2.406
   1.10755  0.07241 -0.04142 -1.09120  0.005061  0.001956  0.061376     2.418
   1.11896  0.08357 -0.04380 -1.10642  0.005523  0.002121  0.056388     2.430
   1.13134  0.09574 -0.04609 -1.11916  0.006004  0.002291  0.051884     2.442
   1.14453  0.10876 -0.04824 -1.12962  0.006497  0.002464  0.047854     2.453
   1.15836  0.12244 -0.05021 -1.13804  0.006997  0.002639  0.044255     2.464
   1.17268  0.13665 -0.05200 -1.14471  0.007499  0.002814  0.041055     2.476
   1.18737  0.15126 -0.05358 -1.14991  0.008000  0.002987  0.038222     2.487
   1.20235  0.16617 -0.05497 -1.15386  0.008500  0.003158  0.035673     2.498
   1.21756  0.18133 -0.05616 -1.15680  0.008997  0.003327  0.033399     2.509
   1.23295  0.19669 -0.05718 -1.15888  0.009492  0.003494  0.031337     2.520
   1.24849  0.21221 -0.05803 -1.16023  0.009985  0.003659  0.029462     2.531
   1.26417  0.22787 -0.05871 -1.16098  0.010475  0.003823  0.027763     2.542
   1.27995  0.24365 -0.05924 -1.16122  0.010964  0.003984  0.026202     2.553
   1.29583  0.25952 -0.05963 -1.16103  0.011451  0.004144  0.024771     2.564
   1.31180  0.27549 -0.05988 -1.16046  0.011938  0.004302  0.023444     2.576
   1.32784  0.29153 -0.06000 -1.15960  0.012423  0.004459  0.022224     2.587
   1.34396  0.30765 -0.06000 -1.15846  0.012908  0.004614  0.021090     2.598
   1.36014  0.32382 -0.05989 -1.15711  0.013391  0.004768  0.020040     2.609
   1.37637  0.34006 -0.05967 -1.15557  0.013875  0.004921  0.019060     2.621
   1.39266  0.35634 -0.05935 -1.15387  0.014359  0.005072  0.018146     2.632
   1.40899  0.37267 -0.05893 -1.15204  0.014840  0.005222  0.017297     2.643
   1.42537  0.38904 -0.05842 -1.15010  0.015323  0.005371  0.016497     2.654
   1.44180  0.40545 -0.05782 -1.14807  0.015803  0.005519  0.015755     2.665
   1.45825  0.42190 -0.05714 -1.14597  0.016285  0.005666  0.015054     2.676
   1.47475  0.43838 -0.05639 -1.14380  0.016765  0.005812  0.014400     2.687
   1.49128  0.45488 -0.05555 -1.14159  0.017244  0.005956  0.013784     2.698
   1.50783  0.47142 -0.05465 -1.13934  0.017723  0.006100  0.013204     2.709
   1.52442  0.48797 -0.05368 -1.13707  0.018199  0.006242  0.012661     2.720
   1.54103  0.50455 -0.05265 -1.13477  0.018677  0.006384  0.012146     2.730
   1.55767  0.52115 -0.05156 -1.13247  0.019152  0.006524  0.011664     2.741
   1.57432  0.53777 -0.05041 -1.13015  0.019626  0.006663  0.011207     2.751
   1.59100  0.55441 -0.04920 -1.12784  0.020099  0.006801  0.010776     2.761
   1.60770  0.57105 -0.04794 -1.12553  0.020572  0.006939  0.010367     2.771
   1.62441  0.58772 -0.04663 -1.12323  0.021043  0.007075  0.009982     2.781
   1.64114  0.60439 -0.04527 -1.12093  0.021514  0.007210  0.009612     2.791
   1.65788  0.62107 -0.04387 -1.11865  0.021983  0.007345  0.009264     2.801
   1.67464  0.63777 -0.04242 -1.11638  0.022452  0.007478  0.008933     2.811
   1.69141  0.65446 -0.04092 -1.11413  0.022921  0.007611  0.008616     2.821
   1.70818  0.67117 -0.03939 -1.11189  0.023390  0.007742  0.008313     2.830
   1.72497  0.68788 -0.03781 -1.10966  0.023859  0.007873  0.008022     2.840
   1.74176  0.70459 -0.03619 -1.10745  0.024330  0.008003  0.007742     2.850
   1.75856  0.72131 -0.03453 -1.10526  0.024799  0.008133  0.007475     2.860
   1.77536  0.73803 -0.03284 -1.10308  0.025273  0.008261  0.007214     2.870
   1.79216  0.75474 -0.03111 -1.10092  0.025747  0.008390  0.006964     2.880
   1.80897  0.77146 -0.02934 -1.09877  0.026225  0.008517  0.006719     2.891
   1.82578  0.78817 -0.02753 -1.09664  0.026708  0.008644  0.006481     2.902
   1.84259  0.80487 -0.02569 -1.09451  0.027192  0.008771  0.006250     2.913
   1.85939  0.82157 -0.02381 -1.09240  0.027682  0.008897  0.006023     2.925
   1.87619  0.83826 -0.02190 -1.09030  0.028179  0.009023  0.005799     2.937
   1.89298  0.85494 -0.01994 -1.08821  0.028682  0.009148  0.005579     2.949
   1.90975  0.87159 -0.01796 -1.08613  0.029192  0.009273  0.005362     2.962
   1.92648  0.88820 -0.01594 -1.08406  0.029708  0.009398  0.005149     2.976
   1.94314  0.90473 -0.01389 -1.08200  0.030234  0.009522  0.004938     2.990
   1.95965  0.92111 -0.01182 -1.07997  0.030764  0.009645  0.004730     3.005
   1.97586  0.93719 -0.00974 -1.07798  0.031297  0.009765  0.004526     3.020
   1.99151  0.95271 -0.00771 -1.07607  0.031820  0.009882  0.004332     3.035
   2.00619  0.96726 -0.00576 -1.07428  0.032323  0.009991  0.004150     3.051
   2.01942  0.98036 -0.00398 -1.07267  0.032779  0.010089  0.003991     3.065
   2.03084  0.99168 -0.00242 -1.07129  0.033183  0.010174  0.003852     3.077
   2.03924  1.00000 -0.00126 -1.07038  0.033384  0.010231  0.003814     3.079
   2.03924  1.00010  0.00000  1.07038  0.129462  0.021020  0.000000     5.884
   2.04765  1.00850  0.00001  1.06862  0.128707  0.021291  0.000000     5.774
   2.05731  1.01817  0.00005  1.06628  0.127707  0.021653  0.000000     5.633
   2.06843  1.02928  0.00011  1.06353  0.126510  0.022079  0.000000     5.471
   2.08121  1.04207  0.00021  1.06029  0.125087  0.022580  0.000000     5.289
   2.09592  1.05677  0.00034  1.05646  0.123405  0.023172  0.000000     5.083
   2.11283  1.07368  0.00052  1.05190  0.121420  0.023876  0.000000     4.852
   2.13228  1.09313  0.00076  1.04645  0.119084  0.024718  0.000000     4.595
   2.15465  1.11550  0.00107  1.03994  0.116344  0.025725  0.000000     4.312
   2.18038  1.14123  0.00145  1.03253  0.113124  0.026872  0.000000     4.011
   2.20997  1.17082  0.00195  1.02486  0.109329  0.028057  0.000000     3.710
   2.24400  1.20484  0.00257  1.01662  0.104934  0.029325  0.000000     3.404
   2.28315  1.24398  0.00334  1.00800  0.099904  0.030643  0.000000     3.098
   2.32817  1.28899  0.00430  0.99932  0.094240  0.031956  0.000000     2.798
   2.37995  1.34075  0.00549  0.99106  0.088005  0.033187  0.000000     2.511
   2.43950  1.40029  0.00695  0.98382  0.081342  0.034242  0.000000     2.244
   2.50799  1.46876  0.00875  0.97831  0.074492  0.035023  0.000000     2.004
   2.58676  1.54750  0.01094  0.97507  0.067778  0.035464  0.000000     1.794
   2.67736  1.63806  0.01361  0.97434  0.061541  0.035560  0.000000     1.619
   2.78156  1.74221  0.01685  0.97590  0.056036  0.035366  0.000000     1.476
   2.90141  1.86199  0.02076  0.97935  0.051347  0.034958  0.000000     1.363
   3.03924  1.99974  0.02547  0.99604  0.045277  0.033132  0.000000     1.259
